# time [s]			Temp [K]			p_SG [C/Km2]			p_BR [C/Km2],			Phasediff [deg]			p/TSC-ratio			Mean I [A]			Red Chi				p_err [C/Km2]	
4.003670000000001323e+02	2.758744622711955117e+02	1.626293096110635844e-04	3.142156524266443525e-04	2.708173589246320034e+02	7.009392205484925853e+01	-4.748211644925373365e-11	1.850000227667332742e-01	1.757630039400152055e-06
6.013670000000000755e+02	2.772103425446476308e+02	1.629462329568836230e-04	4.529549924834597153e-05	2.703473063729618389e+02	1.649698428337225096e+02	-7.866065021144290012e-12	1.516324594674100246e-01	7.996344853695599301e-07
8.023670000000000755e+02	2.786249842966539063e+02	1.640050723669051380e-04	6.333302212449750410e-05	2.702968978350532439e+02	1.929797388914081466e+02	1.114483437288557407e-11	1.512023059696639138e-01	8.135411550384644265e-07
1.003367000000000075e+03	2.800442878535959039e+02	1.648813296093110863e-04	2.101151617457316595e-05	2.702995882134966337e+02	1.912467005329052370e+02	3.686283774378104854e-12	2.060372480453447619e-01	9.161026265673958202e-07
1.204367000000000189e+03	2.814591031688442513e+02	1.655084236617341143e-04	8.661785928012978499e-05	2.702407690965489451e+02	2.379684231886251098e+02	-1.514993836318408506e-11	1.999828764517980750e-01	9.179928577929483756e-07
1.405366999999999962e+03	2.828690066563019627e+02	1.661447315337390076e-04	1.957957133537116231e-04	2.704425936132650463e+02	1.294520258646656714e+02	-3.416485830895522989e-11	2.695729000676266862e-01	1.038750205585994767e-06
1.606366999999999962e+03	2.842755991581949502e+02	1.673947890400908235e-04	2.081065573493385320e-04	2.702020387324743638e+02	2.835869208448083896e+02	-3.622138428121890272e-11	1.802355977832893752e-01	8.773850802921327071e-07
1.807366999999999280e+03	2.856791580992319268e+02	1.683476822481259471e-04	1.078222757351361385e-04	2.700037298550682863e+02	1.536139565306551231e+04	-1.871604912374628248e-11	1.703559347703096638e-01	8.476447601280473410e-07
2.008366999999999280e+03	2.870795752486213246e+02	1.691770835520444436e-04	7.571548207379600265e-07	2.700714894614031323e+02	8.014572869265713280e+02	-1.311640412935369520e-13	1.845672101411331145e-01	8.860731430953370112e-07
2.209366999999999280e+03	2.884783638757435824e+02	1.702407091156761141e-04	7.026691111151080313e-05	2.699855759351535767e+02	3.972235213356307213e+03	1.216335546019900264e-11	1.748714147069977964e-01	8.742586353965809514e-07
2.410366999999999280e+03	2.898777109283737445e+02	1.680107214620826068e-04	2.629208605874472688e-05	2.722912592368840023e+02	2.499290906736365514e+01	4.559638976422893593e-12	2.300991941738281810e+00	3.063325462447090881e-06
2.611367000000000189e+03	2.912765931605159722e+02	1.719192393411926492e-04	9.786589295878587904e-05	2.700142680905698285e+02	4.015658440659254211e+03	-1.694645406691542374e-11	1.629302280915700396e-01	8.415597263688606521e-07
2.812367000000000189e+03	2.926744534218509557e+02	1.731381561650571310e-04	2.092137637969597658e-04	2.699261539902350933e+02	7.758814317774986193e+02	-3.623312737338307558e-11	1.697518057449349249e-01	8.789949270398629491e-07
3.013367000000000189e+03	2.940776606038440377e+02	1.706665502209740433e-04	2.028043444530260031e-04	2.709051711121429662e+02	6.329301937378972553e+01	-3.533739510099502361e-11	1.768211071643474241e+00	2.737664171751655562e-06
3.214367000000000189e+03	2.954738375578567116e+02	1.737333791066480635e-04	1.252440090949273621e-04	2.704290004926925803e+02	1.335539463833255240e+02	-2.155485919402984619e-11	2.018162069429793870e-01	9.851163322402037786e-07
3.415366999999998825e+03	2.968678898801166497e+02	1.748539092094300899e-04	7.550936778533739384e-06	2.702592924333602014e+02	2.209682235105488814e+02	1.304585297114435677e-12	1.784578716581561031e-01	9.342142109931220672e-07
3.616366999999998825e+03	2.982635229779635893e+02	1.746092307842674507e-04	7.726814998041841751e-05	2.712066390516562819e+02	4.747675673889008863e+01	1.337080006293532558e-11	8.989751019052669712e-01	2.066232989091625602e-06
3.817366999999998825e+03	2.996594687503985597e+02	1.769969695101957690e-04	2.199468271803420899e-05	2.702091063968717890e+02	2.740017808418396612e+02	3.800875191791049415e-12	1.975239070388158102e-01	9.975172192122127477e-07
4.018366999999998825e+03	3.010556494189119690e+02	1.772188191128803709e-04	9.826842995790613996e-05	2.709546943179298637e+02	6.000923624324614991e+01	-1.700463445398010973e-11	1.088339650006405757e+00	2.289453074132055491e-06
4.219366999999998370e+03	3.024522359752391480e+02	1.754386661897913843e-04	2.098243992291546744e-04	2.720796642560979990e+02	2.753839485625578121e+01	-3.625564166815920154e-11	2.238239052807310614e+00	3.471798738138451586e-06
4.420366999999998370e+03	3.038468829099974187e+02	1.790728010477142811e-04	2.214276938046168188e-04	2.708736887417180128e+02	6.557408356426947194e+01	-3.833096844651741464e-11	6.576502689510432820e-01	1.874665321239301113e-06
4.621366999999998370e+03	3.052431217491433131e+02	1.810686162587200475e-04	1.069713488021355337e-04	2.699721260883997616e+02	2.055534071238322667e+03	-1.851094107960198753e-11	2.499982214082650811e-01	1.165711103159840681e-06
4.822366999999998370e+03	3.066398116831347238e+02	1.787634941278737864e-04	5.107492373740741306e-06	2.718098353294504363e+02	3.164747709584148794e+01	8.848643355721398738e-13	1.982627016573619061e+00	3.334127342794698862e-06
5.023366999999998370e+03	3.080360423457302659e+02	1.830162091310363383e-04	1.126017862147272278e-05	2.699264518023448431e+02	7.790231422318936438e+02	1.947412057711448262e-12	1.529371625271102875e-01	9.347296296455821854e-07
5.224367000000000189e+03	3.094322380290300316e+02	1.840951436538305896e-04	3.368381117057214172e-05	2.698915712001914926e+02	5.284178300960869592e+02	-5.824305088805966161e-12	1.772094100463481592e-01	1.069557661118915315e-06
5.425367000000000189e+03	3.108267589622583387e+02	1.847824477792791578e-04	1.623913557669281354e-04	2.699874713760833060e+02	4.573190079033355687e+03	-2.809097357263681996e-11	2.615389789579676827e-01	1.231837469939829299e-06
5.626367000000000189e+03	3.122230530342427528e+02	1.863554296015298333e-04	2.350900965695467391e-04	2.706601726912008985e+02	8.678523772620590648e+01	-4.073656223407960123e-11	9.676774275778713408e-01	2.424637169232788039e-06
5.827367000000000189e+03	3.136203441823562912e+02	1.872208713624725328e-04	1.993854908613379071e-04	2.707459823100274434e+02	7.680147529113665428e+01	-3.454125884378109371e-11	8.798235124053427336e-01	2.396495854010098162e-06
6.028367000000000189e+03	3.150160151725465880e+02	1.866261205828097269e-04	6.710099237572475874e-05	2.705425257885631822e+02	1.056061635105693597e+02	-1.159863460746268864e-11	7.896036173399680891e-01	2.195017444907303487e-06
6.229367000000000189e+03	3.164122306069151023e+02	1.890148910061204641e-04	5.899855634623518062e-05	2.699525209083089408e+02	1.206757845561314753e+03	1.019461586967662956e-11	3.262624182904530490e-01	1.432813451398373626e-06
6.430367000000000189e+03	3.178083479825955351e+02	1.874984313542636682e-04	1.021464833204414294e-04	2.713908742883772334e+02	4.118598273243887320e+01	1.767913900771145059e-11	1.871350631660958275e+00	3.551438833248395103e-06
6.631367000000000189e+03	3.192035824465084488e+02	1.910898913796545227e-04	2.695345070892206892e-05	2.699254196006270377e+02	7.682413561069338357e+02	-4.658629710447750509e-12	2.767845562046077901e-01	1.365012115374192330e-06
6.832367000000000189e+03	3.206004358814228681e+02	1.918773264627254165e-04	1.752218918323347426e-04	2.699497627877961463e+02	1.140504465053358444e+03	-3.030315211368159498e-11	4.201380953196217072e-01	1.642839804440675815e-06
7.033367000000000189e+03	3.219965336838824896e+02	1.890574788483181099e-04	2.442431938361936230e-04	2.716225684965051528e+02	3.530233837511224237e+01	-4.218625790049751685e-11	2.558491113704544961e+00	4.273217041671200235e-06
7.234367000000000189e+03	3.233921848219603703e+02	1.944204049583853728e-04	1.640906175722602674e-04	2.708279413666350024e+02	6.919788497734840860e+01	-2.842970021144278729e-11	1.386228123102044352e+00	3.177544583091649930e-06
7.435367000000000189e+03	3.247880761705869759e+02	1.932693128818188514e-04	4.016060406418166571e-05	2.701011102290873396e+02	5.666659105968707308e+02	6.949052575124373585e-12	8.252084116983409157e-01	2.269271224014577262e-06
7.636367000000000189e+03	3.261836086252958467e+02	1.933346107267679885e-04	7.368550988487124643e-05	2.711292784599006040e+02	5.073005652369320728e+01	1.275345762238806847e-11	1.882190287056782818e+00	3.668540685516671671e-06
7.837367000000000189e+03	3.275801277842820696e+02	1.966776545234636406e-04	7.459065762005802065e-05	2.694254897292137798e+02	9.972643169395090013e+01	1.290487169126865778e-11	3.512673458702713081e-01	1.796449978997667482e-06
8.038367000000000189e+03	3.289747491799946602e+02	1.984676726419761579e-04	8.760785947934961908e-05	2.695523686500611120e+02	1.279950874497484108e+02	-1.518402805273632312e-11	3.525613892943800787e-01	1.708139605804435651e-06
8.239367000000000189e+03	3.303713092425930995e+02	1.997020049156303552e-04	2.191479861851409225e-04	2.694843717125129388e+02	1.111153792594869714e+02	-3.791870161741292424e-11	3.240579517194394632e-01	1.695735451679429140e-06
8.440367000000000189e+03	3.317665938446340306e+02	2.011390343729602885e-04	2.138430936915478389e-04	2.698306652817672671e+02	3.383571502108478626e+02	-3.696333539079601349e-11	4.518326445142366588e-01	1.799656579757021338e-06
8.641367000000000189e+03	3.331635969741219583e+02	2.033329366684666361e-04	1.019020783729694245e-04	2.696240547308291866e+02	1.524023892740898418e+02	-1.763059038009950761e-11	2.658086513639195680e-01	1.608499863567698809e-06
8.842367000000000189e+03	3.345595447809063216e+02	2.037750997540617340e-04	4.375806899447283785e-05	2.695703046834587440e+02	1.333379795468059967e+02	7.575081995024879406e-12	3.724396296487280100e-01	1.785627310074564170e-06
9.043367000000000189e+03	3.359558959422610656e+02	2.002727413115180943e-04	1.090878186599417382e-04	2.704310946881889208e+02	1.329051363660065022e+02	1.893656760522387880e-11	1.929745401623203183e+00	3.483039590470438480e-06
9.244367000000000189e+03	3.373523248296303905e+02	2.052839357920875976e-04	2.883138963246726009e-05	2.695808251064153751e+02	1.366846110322543097e+02	4.975039878109453209e-12	4.980365850409104733e-01	2.087717413696025073e-06
9.445367000000000189e+03	3.387492230957170705e+02	2.082335372912259928e-04	1.267985686325398867e-04	2.692181206573777672e+02	7.327501794860117457e+01	-2.195283187658707176e-11	3.574067614812665994e-01	2.021369374058334213e-06
9.646367000000000189e+03	3.401451163511709979e+02	2.098490392854542735e-04	2.374306154961043690e-04	2.691600131446687101e+02	6.820544179317950295e+01	-4.099733797139303321e-11	4.109926418987301378e-01	2.239946689474237015e-06
9.847367000000000189e+03	3.415412127863069145e+02	2.106498907825198313e-04	1.970061071740659856e-04	2.690178282640554812e+02	5.833009150480231142e+01	-3.402785262136816149e-11	3.857296242903687222e-01	2.227954366803411542e-06
1.004836700000000019e+04	3.429376663503290956e+02	2.116332250368632738e-04	2.624351665138168651e-05	2.688152341240858050e+02	4.835353061970768351e+01	-4.530752773383095599e-12	4.142831032174811301e-01	2.473901214232404348e-06
1.024936700000000019e+04	3.443338301827961914e+02	2.122084431906875979e-04	9.337198457665708557e-05	2.690862083620720000e+02	6.269582597553858250e+01	1.618850351069652447e-11	3.775099335937318612e-01	2.133448462736859811e-06
1.045036700000000019e+04	3.457291782140745795e+02	2.137485785911290423e-04	1.057703020808904113e-04	2.689659939665331194e+02	5.540543996235383162e+01	1.826805977437811920e-11	5.172846516211028201e-01	2.615883775897235244e-06
1.065136700000000019e+04	3.471240250955776219e+02	2.142644968626150777e-04	4.062286556069335565e-06	2.690547987715590921e+02	6.061204754417209983e+01	-7.026663161691551593e-13	5.533246579587441927e-01	2.618084831492642518e-06
1.085236700000000019e+04	3.485201011377604345e+02	2.158923078822328910e-04	2.003837122276704724e-04	2.691004729879589377e+02	6.369021856116165736e+01	-3.464659910447762165e-11	5.117623680198785108e-01	2.548663602733057620e-06
1.105336700000000201e+04	3.499160927450522536e+02	2.169499605403419262e-04	2.245002503572422975e-04	2.690550077809589311e+02	6.062545589391400114e+01	-3.879689130298507171e-11	5.325112559589391115e-01	2.765440270762124240e-06
1.125436700000000201e+04	3.513086885957645222e+02	2.193267568902655445e-04	1.126804070188500053e-04	2.690854031975359817e+02	6.264062239246170805e+01	-1.946617897213928670e-11	5.431016286012217975e-01	2.769392393913022687e-06
1.145536700000000201e+04	3.526887473655741587e+02	2.199463995380569606e-04	4.999404228224888549e-05	2.687113503774185119e+02	4.445437852181323990e+01	8.495048844029841275e-12	4.994916168962512670e-01	2.998752699442175794e-06
1.165636700000000201e+04	3.540641809000272815e+02	2.216621425732278748e-04	1.293228706730348830e-04	2.690433773961735824e+02	5.988825184877924102e+01	2.202455064850745948e-11	5.830479151598969567e-01	2.878433194225762411e-06
1.185736700000000201e+04	3.554446103101321341e+02	2.208240963295165463e-04	6.533708424121282957e-05	2.702892343695296518e+02	1.980929614676085180e+02	1.120148738432835878e-11	1.759170597385530499e+00	3.656921415747556925e-06
1.205836700000000201e+04	3.568302501551194155e+02	2.259391803141769803e-04	1.019258544167576795e-04	2.689435543123381080e+02	5.422833086390052415e+01	-1.753712604875620648e-11	4.369097708098040878e-01	2.774289890490310336e-06
1.225936700000000201e+04	3.582212265804496383e+02	2.264409663800110415e-04	1.937988109366829475e-04	2.689240108137496463e+02	5.324314087394241568e+01	-3.350378399783581837e-11	4.866656129711655621e-01	2.780254430782331866e-06
1.246036700000000201e+04	3.596132195010264923e+02	2.264168669583289202e-04	1.591859629453808243e-04	2.687813012989000754e+02	4.700681021739649879e+01	-2.748300529950247808e-11	5.446395014359575182e-01	3.307553594234406530e-06
1.266136700000000201e+04	3.610065701714675015e+02	2.290169699356090069e-04	4.089550237877035273e-06	2.687061801223142652e+02	4.427667359887499288e+01	7.036908137064647015e-13	5.865096477510129969e-01	3.369631501477223574e-06
1.286236700000000201e+04	3.624016985634466437e+02	2.303731987910642828e-04	1.380393548108777653e-04	2.688201715851787412e+02	4.855594276704378132e+01	2.380244427860696079e-11	6.225832453823484380e-01	3.544768425150164596e-06
1.306336700000000201e+04	3.637979023746700591e+02	2.323669649022055170e-04	1.248925400843707903e-04	2.688616302685423989e+02	5.032480974721279665e+01	2.162873205472636506e-11	6.236920882577573488e-01	3.415335612759184778e-06
1.326436700000000201e+04	3.651933230720358665e+02	2.325126394101186152e-04	2.375279651538463850e-06	2.687390485537524114e+02	4.543119336455117718e+01	4.104369554726409401e-13	5.706147483379105934e-01	3.462158643047815514e-06
1.346536700000000201e+04	3.665901141611814182e+02	2.340593259508181516e-04	1.834799435252292563e-04	2.690047002573122086e+02	5.756056566407238506e+01	-3.180847903482586648e-11	5.034015605052900577e-01	3.026397571383061887e-06
1.366636700000000201e+04	3.679858909008054297e+02	2.361206627422056880e-04	2.088078886967957950e-04	2.688652863274886613e+02	5.048699940489802174e+01	-3.616117316915423434e-11	9.606886729252968049e-01	4.087605770279448042e-06
1.386736700000000201e+04	3.693833151581942502e+02	2.375452763279664527e-04	6.864921465772497134e-05	2.686674011067500487e+02	4.298776483290205874e+01	-1.190262048756217577e-11	6.838702263843313700e-01	3.938451019472620618e-06
1.406836700000000201e+04	3.707813662316003729e+02	2.374581277503523590e-04	1.109391228372345005e-04	2.688042022032455520e+02	4.790731377634722321e+01	1.925067734577114232e-11	4.789626283263586637e-01	3.294652892602521839e-06
1.426936700000000201e+04	3.721776472138593022e+02	2.387257828468380429e-04	1.929281100524934110e-04	2.688321324191941812e+02	4.905337325980576679e+01	3.332261111442785161e-11	7.272212547131231553e-01	3.998698481811850833e-06
1.447036700000000201e+04	3.735737771542208066e+02	2.386564946293862370e-04	8.478185889236779108e-05	2.690023011329739688e+02	5.742212431964210850e+01	1.464522640895522829e-11	7.400895535324926167e-01	3.891771350136154823e-06
1.467136700000000201e+04	3.749709452074529281e+02	2.425271874230221203e-04	9.124379417608397957e-05	2.683421325917242370e+02	3.455028313368359960e+01	-1.576728950995025906e-11	8.224020974231398551e-01	5.098721527519557985e-06
1.487236700000000201e+04	3.763683478181291662e+02	2.431613493750095121e-04	2.102324272570052770e-04	2.684003182905476592e+02	3.580768027138444864e+01	-3.652815128283581281e-11	6.422813592806625449e-01	4.635491017758624567e-06
1.507336700000000201e+04	3.777644177183684064e+02	2.444577233480854303e-04	1.498555933613797864e-04	2.686857678666364677e+02	4.358874602786006136e+01	-2.599107119825869769e-11	8.658830020957174467e-01	4.865692494062606683e-06
1.527436700000000201e+04	3.791625216240124701e+02	2.457032313556070375e-04	3.300930102951053161e-05	2.685882534496936955e+02	4.057681887911193286e+01	5.725456832089552082e-12	7.276397996285611791e-01	4.714143939785345801e-06
1.547536700000000201e+04	3.805580326812425938e+02	2.469192643716211781e-04	2.876912543316819293e-04	2.686886984119288968e+02	4.368619390871153030e+01	4.985531067537314037e-11	7.183552258214522812e-01	4.438666143637731171e-06
1.567636700000000201e+04	3.819547311291723872e+02	2.475398235476296846e-04	1.396840271126614265e-04	2.686171406606823098e+02	4.142478713642919530e+01	2.414369776883332949e-11	9.156016785951797132e-01	5.219779800130309217e-06
1.587736700000000201e+04	3.833506501176664187e+02	2.483872062422670581e-04	3.853323598618295202e-05	2.691723051482354663e+02	6.921849726234405864e+01	6.670902208631845612e-12	1.002959364166035483e+00	4.409014629450033762e-06
1.607836700000000201e+04	3.847486286588787152e+02	2.499039197604024931e-04	1.187356969023471985e-04	2.685836158641563429e+02	4.044390664587168516e+01	-2.053364466741293505e-11	9.741284630120012888e-01	5.844278665886226962e-06
1.627936700000000201e+04	3.861449957731231279e+02	2.506298252588502317e-04	1.634570899445086456e-04	2.685587499786237800e+02	3.974584109937462983e+01	-2.830484315995023090e-11	7.660147986777833262e-01	4.999828729204508799e-06
1.648036699999999837e+04	3.875425431521352380e+02	2.525601450068594737e-04	7.846311826556038747e-05	2.685578992241971719e+02	3.972238349978182725e+01	-1.357551664179104181e-11	7.980492651424184736e-01	5.306246897810111084e-06
1.668136699999999837e+04	3.889373685252117525e+02	2.529655474348256757e-04	7.659611442744474310e-05	2.685193607864355840e+02	3.868803701792205629e+01	1.323155339800994162e-11	8.429133535017396817e-01	5.183314854141060509e-06
1.688236699999999837e+04	3.903349682449953093e+02	2.556038545341955464e-04	1.880719038815070992e-04	2.684750178316377855e+02	3.756256987200854525e+01	3.254374327114428650e-11	8.012472707311593112e-01	5.654743435894592527e-06
1.708336699999999837e+04	3.917308489895484627e+02	2.553248763543746174e-04	2.011718939150426439e-04	2.683669742123583433e+02	3.507615400109852999e+01	3.482924116592039042e-11	6.857549044126606264e-01	5.471682740996357363e-06
1.728436699999999837e+04	3.931270682451020093e+02	2.553139919639397680e-04	1.036789456948939282e-04	2.686679714298200565e+02	4.300617716762742759e+01	1.794261819527361348e-11	1.253561167570056867e+00	6.394982877185362368e-06
1.748536699999999837e+04	3.945231232357268709e+02	2.574885032012271045e-04	3.657219679237593490e-05	2.684199894813080505e+02	3.625371757922430049e+01	-6.344064758706460301e-12	1.095542378272181816e+00	6.435873660761810666e-06
1.768636699999999837e+04	3.959203967976974354e+02	2.605660505957519790e-04	1.309293145018962661e-04	2.681611042177141826e+02	3.114700992021737491e+01	-2.263934576119404220e-11	1.213910637678487392e+00	7.702993344196106952e-06
